# time0_transmit N0 E0 U0 sigN0 sigE0 sigU0 time1_receive N1 E1 U1 sigN1 sigE1 sigU1 TWTT(s)
# transmit/receive times in seconds after 2020-1-1 00:00:00 (UTC)
# Topocentric coordinates: Lat0=32.8668445 deg., Lon0=-117.2701205 deg., H0=-88.738 m 
 49231669.0000000    55.7853   115.8632    53.3079 0.0168 0.0150 0.0177  49231669.3857999    55.8253   115.8985    53.2556 0.0168 0.0150 0.0177  0.1858000
 49231679.0000000    57.7569   117.2049    53.3736 0.0169 0.0151 0.0178  49231679.3884718    57.8834   117.3697    53.3361 0.0169 0.0151 0.0178  0.1884720
 49231689.0000000    59.3624   118.9188    53.2009 0.0167 0.0149 0.0176  49231689.3911152    59.4363   118.9499    53.2140 0.0167 0.0149 0.0176  0.1911150
 49231699.0000000    61.0720   120.6129    53.4637 0.0168 0.0150 0.0177  49231699.3941188    61.1475   120.7409    53.3995 0.0168 0.0150 0.0177  0.1941190
 49231709.0000000    62.8068   121.8488    53.2827 0.0169 0.0151 0.0178  49231709.3963499    62.8984   121.8850    53.3784 0.0169 0.0151 0.0178  0.1963500
 49231719.0000000    64.6997   123.8020    52.8509 0.0167 0.0149 0.0176  49231719.3994241    64.7362   123.7122    52.8329 0.0167 0.0149 0.0176  0.1994240
 49231729.0000000    66.4046   125.3173    53.2536 0.0201 0.0178 0.0212  49231729.4022920    66.4753   125.4062    53.3013 0.0172 0.0153 0.0181  0.2022920
 49231739.0000000    68.2296   127.0284    53.0460 0.0202 0.0179 0.0213  49231739.4050980    68.2880   127.0847    53.1070 0.0202 0.0179 0.0213  0.2050980
 49231749.0000000    69.8126   129.4358    53.2453 0.0200 0.0177 0.0211  49231749.4088562    69.9096   129.5120    53.1373 0.0200 0.0176 0.0210  0.2088560
 49231759.0000000    71.8495   130.6329    53.3197 0.0201 0.0177 0.0212  49231759.4113960    71.9012   130.7585    53.4785 0.0201 0.0178 0.0212  0.2113960
 49231769.0000000    73.7390   132.9097    53.4197 0.0202 0.0179 0.0213  49231769.4151452    73.7959   133.0760    53.2710 0.0203 0.0179 0.0214  0.2151450
 49231779.0000000    75.0423   134.7260    53.2783 0.0200 0.0177 0.0211  49231779.4178238    75.1118   134.7452    53.2339 0.0200 0.0176 0.0210  0.2178240
 49231789.0000000    76.8302   136.4410    53.6978 0.0169 0.0151 0.0178  49231789.4210420    76.9039   136.6217    53.6130 0.0177 0.0157 0.0187  0.2210420
 49231799.0000000    78.5102   138.0176    53.1290 0.0178 0.0158 0.0188  49231799.4234869    78.5476   138.0293    53.0992 0.0177 0.0158 0.0187  0.2234870
 49231809.0000000    80.1957   139.7518    53.1432 0.0167 0.0149 0.0176  49231809.4266548    80.2851   139.8571    53.1256 0.0168 0.0149 0.0176  0.2266550
 49231819.0000000    81.8036   141.6114    52.8867 0.0169 0.0150 0.0178  49231819.4294732    81.9000   141.5679    52.9606 0.0169 0.0150 0.0178  0.2294730
 49231829.0000000    83.5603   143.3584    53.3884 0.0170 0.0151 0.0179  49231829.4326859    83.6219   143.4824    53.4957 0.0170 0.0151 0.0179  0.2326860
 49231839.0000000    85.1044   145.8350    53.2142 0.0175 0.0156 0.0185  49231839.4363198    85.0837   145.8733    53.2211 0.0175 0.0156 0.0185  0.2363200
 49231849.0000000    86.5268   147.9492    53.1456 0.0179 0.0159 0.0189  49231849.4394979    86.5395   147.9531    53.1186 0.0179 0.0158 0.0189  0.2394980
 49231869.0000000    89.3695   151.6557    53.1697 0.0175 0.0156 0.0185  49231869.4454482    89.4799   151.6922    53.1300 0.0175 0.0156 0.0185  0.2454480
 49231879.0000000    91.0182   153.4497    53.3688 0.0176 0.0157 0.0186  49231879.4485848    91.1031   153.6054    53.3038 0.0176 0.0157 0.0186  0.2485850
 49231921.0000000   107.2013   170.5007    53.4987 0.0177 0.0157 0.0187  49231921.4783950   107.7091   170.6814    53.4430 0.0177 0.0157 0.0187  0.2783950
 49232021.0000000    69.6948   112.3830    53.3413 0.0174 0.0155 0.0184  49232021.3902230    69.5572   112.2075    53.4463 0.0174 0.0154 0.0184  0.1902230
 49232041.0000000    62.2237   102.8827    53.2589 0.0177 0.0157 0.0187  49232041.3756242    62.1776   102.8171    53.3429 0.0177 0.0157 0.0187  0.1756240
 49232071.0000000    52.2809    88.0635    53.3311 0.0177 0.0157 0.0187  49232071.3540041    52.2559    87.7899    53.2153 0.0177 0.0157 0.0187  0.1540040
 49232081.0000000    49.9834    82.5732    53.1247 0.0174 0.0154 0.0184  49232081.3469758    49.9484    82.3104    53.0845 0.0174 0.0154 0.0183  0.1469760
 49232091.0000000    46.2525    79.1728    52.8300 0.0177 0.0156 0.0186  49232091.3412230    45.9719    79.1081    52.8992 0.0177 0.0156 0.0186  0.1412230
 49232101.0000000    39.3147    83.0703    53.0672 0.0177 0.0157 0.0187  49232101.3416440    39.0955    83.1856    53.0349 0.0177 0.0157 0.0187  0.1416440
 49232111.0000000    33.3606    87.6204    53.3751 0.0174 0.0154 0.0184  49232111.3440681    33.2006    87.8564    53.4274 0.0174 0.0154 0.0183  0.1440680
 49232121.0000000    28.0015    92.3543    53.5040 0.0176 0.0156 0.0186  49232121.3473539    27.8464    92.5783    53.5730 0.0177 0.0156 0.0186  0.1473540
 49232131.0000000    22.0965    96.6093    53.2823 0.0177 0.0157 0.0186  49232131.3501911    21.9039    96.7668    53.2291 0.0177 0.0156 0.0186  0.1501910
 49232141.0000000    16.1092    99.4444    53.4846 0.0174 0.0154 0.0183  49232141.3521981    15.8526    99.5742    53.4403 0.0174 0.0154 0.0183  0.1521980
 49232151.0000000     9.6367   102.1217    53.1951 0.0176 0.0156 0.0186  49232151.3541250     9.4416   102.1275    53.0100 0.0176 0.0156 0.0186  0.1541250
 49232161.0000000     3.2488   103.3353    53.1450 0.0176 0.0156 0.0186  49232161.3551128     2.9822   103.3816    53.1588 0.0177 0.0156 0.0186  0.1551130
 49232171.0000000    -3.2590   103.4189    53.2382 0.0174 0.0154 0.0183  49232171.3552458    -3.4761   103.4217    53.2325 0.0174 0.0154 0.0183  0.1552460
 49232181.0000000    -9.7692   102.1053    53.2567 0.0176 0.0156 0.0186  49232181.3541911    -9.9892   102.0621    53.2929 0.0176 0.0156 0.0186  0.1541910
 49232191.0000000   -15.9290   100.0459    53.3781 0.0176 0.0156 0.0186  49232191.3527548   -16.1482    99.9818    53.4159 0.0177 0.0156 0.0186  0.1527550
 49232201.0000000   -22.0719    97.4105    53.4749 0.0174 0.0154 0.0183  49232201.3512459   -22.3333    97.4635    53.5554 0.0173 0.0154 0.0183  0.1512460
 49232211.0000000   -28.6727    96.6161    53.3433 0.0176 0.0156 0.0186  49232211.3521371   -28.9206    96.5564    53.1860 0.0176 0.0156 0.0186  0.1521370
 49232221.0000000   -34.8576    94.6092    52.8769 0.0177 0.0156 0.0186  49232221.3519349   -35.0077    94.4773    52.9261 0.0177 0.0156 0.0186  0.1519350
 49232231.0000000   -40.0587    92.4419    53.1090 0.0174 0.0154 0.0183  49232231.3519850   -40.2687    92.3902    53.1872 0.0174 0.0153 0.0183  0.1519850
 49232241.0000000   -45.5144    89.9092    53.1421 0.0176 0.0156 0.0186  49232241.3520362   -45.6399    89.8550    53.2548 0.0176 0.0156 0.0186  0.1520360
 49232251.0000000   -50.4946    87.2462    53.1905 0.0176 0.0156 0.0186  49232251.3520391   -50.6740    87.1004    53.1456 0.0176 0.0156 0.0186  0.1520390
 49232261.0000000   -54.9027    83.3469    53.4207 0.0173 0.0153 0.0183  49232261.3510010   -55.0603    83.2185    53.4719 0.0173 0.0153 0.0183  0.1510010
 49232271.0000000   -58.0948    77.8512    53.2398 0.0176 0.0156 0.0186  49232271.3477042   -58.1763    77.6364    53.2624 0.0176 0.0156 0.0186  0.1477040
 49232281.0000000   -60.9208    72.2156    52.9115 0.0176 0.0156 0.0186  49232281.3444078   -61.0128    71.9701    52.8986 0.0176 0.0156 0.0186  0.1444080
 49232291.0000000   -64.6051    67.5231    53.0475 0.0174 0.0153 0.0183  49232291.3434241   -64.6959    67.4275    53.1811 0.0173 0.0153 0.0182  0.1434240
 49232301.0000000   -70.1326    64.0571    53.1803 0.0176 0.0156 0.0186  49232301.3452358   -70.3907    63.9136    53.1308 0.0176 0.0155 0.0186  0.1452360
 49232311.0000000   -76.8552    62.1448    52.8843 0.0176 0.0156 0.0186  49232311.3497598   -77.0602    61.9748    53.0117 0.0176 0.0156 0.0186  0.1497600
 49232321.0000000   -83.6427    61.8456    53.3372 0.0173 0.0153 0.0183  49232321.3560679   -83.8884    61.9276    53.2890 0.0173 0.0153 0.0182  0.1560680
 49232331.0000000   -90.2484    61.4032    53.2231 0.0176 0.0155 0.0185  49232331.3620360   -90.4083    61.3139    53.1075 0.0176 0.0156 0.0186  0.1620360
 49232341.0000000   -95.6891    58.2795    53.2507 0.0176 0.0156 0.0186  49232341.3656008   -95.8421    58.2113    53.3650 0.0176 0.0156 0.0186  0.1656010
 49232351.0000000   -99.6250    53.6909    53.2053 0.0173 0.0153 0.0182  49232351.3668249   -99.7445    53.4539    53.2052 0.0173 0.0153 0.0182  0.1668250
 49232361.0000000  -101.0716    47.0114    53.1726 0.0176 0.0155 0.0185  49232361.3647039  -101.0893    46.7447    53.1314 0.0176 0.0155 0.0185  0.1647040
 49232371.0000000  -100.3095    39.9074    53.3608 0.0176 0.0156 0.0186  49232371.3605828  -100.3634    39.7324    53.3236 0.0176 0.0156 0.0186  0.1605830
 49232381.0000000   -99.2657    33.7368    53.0318 0.0173 0.0153 0.0183  49232381.3567381   -99.2617    33.5741    53.1531 0.0173 0.0153 0.0182  0.1567380
 49232391.0000000   -97.4853    28.2497    53.2660 0.0176 0.0155 0.0185  49232391.3528361   -97.4175    28.0235    53.2963 0.0176 0.0155 0.0185  0.1528360
 49232401.0000000   -95.9801    22.8547    53.4777 0.0176 0.0155 0.0186  49232401.3496282   -95.9213    22.6863    53.4137 0.0176 0.0155 0.0186  0.1496280
 49232411.0000000   -94.8885    16.7001    53.0245 0.0173 0.0153 0.0182  49232411.3467188   -94.8624    16.4928    53.0877 0.0173 0.0153 0.0182  0.1467190
 49232421.0000000   -94.6015    10.8640    53.4388 0.0175 0.0155 0.0185  49232421.3456569   -94.5498    10.7110    53.4826 0.0176 0.0155 0.0185  0.1456570
 49232431.0000000   -95.5348     5.2892    53.2406 0.0176 0.0155 0.0185  49232431.3460808   -95.5250     5.0954    53.2442 0.0176 0.0155 0.0185  0.1460810
 49232441.0000000   -95.8962    -0.8401    53.1203 0.0173 0.0153 0.0182  49232441.3462391   -95.8457    -1.0979    53.0218 0.0173 0.0152 0.0182  0.1462390
 49232451.0000000   -96.1339    -7.1340    53.0146 0.0175 0.0155 0.0185  49232451.3467939   -96.1238    -7.4110    53.0250 0.0176 0.0155 0.0185  0.1467940
 49232461.0000000   -96.0724   -12.8137    53.0382 0.0176 0.0155 0.0185  49232461.3474360   -96.0822   -13.0242    53.1209 0.0176 0.0155 0.0185  0.1474360
 49232471.0000000   -95.2770   -18.6005    53.2035 0.0173 0.0152 0.0182  49232471.3476889   -95.2620   -18.8409    53.1485 0.0173 0.0152 0.0182  0.1476890
 49232481.0000000   -94.6684   -24.2850    53.0604 0.0175 0.0155 0.0185  49232481.3483748   -94.6239   -24.5840    52.9579 0.0175 0.0155 0.0185  0.1483750
 49232491.0000000   -94.2338   -29.8619    53.0869 0.0176 0.0155 0.0185  49232491.3497651   -94.2319   -30.1704    52.9985 0.0175 0.0155 0.0185  0.1497650
 49232501.0000000   -93.3412   -35.1322    53.5849 0.0173 0.0153 0.0182  49232501.3510230   -93.2849   -35.2593    53.5424 0.0172 0.0153 0.0182  0.1510230
 49232511.0000000   -91.0601   -41.1159    53.3582 0.0175 0.0155 0.0185  49232511.3510742   -90.9161   -41.3370    53.3184 0.0175 0.0155 0.0185  0.1510740
 49232521.0000000   -87.5099   -47.1807    52.9879 0.0175 0.0155 0.0185  49232521.3503571   -87.3896   -47.3803    53.0463 0.0176 0.0155 0.0185  0.1503570
 49232532.0000000   -82.6758   -52.5052    53.4766 0.0172 0.0152 0.0181  49232532.3488050   -82.4940   -52.5934    53.4245 0.0172 0.0152 0.0181  0.1488050
 49232541.0000000   -78.8916   -57.2486    53.2833 0.0176 0.0155 0.0185  49232541.3482330   -78.7603   -57.3966    53.3166 0.0175 0.0155 0.0185  0.1482330
 49232551.0000000   -74.8398   -62.3098    52.9682 0.0175 0.0155 0.0185  49232551.3479629   -74.7476   -62.5816    52.9261 0.0175 0.0155 0.0185  0.1479630
 49232561.0000000   -71.3921   -67.3387    53.1757 0.0173 0.0152 0.0182  49232561.3489349   -71.2798   -67.5570    53.1522 0.0172 0.0152 0.0181  0.1489350
 49232571.0000000   -68.2384   -72.0083    53.1775 0.0175 0.0154 0.0184  49232571.3501968   -68.1164   -72.1716    53.2162 0.0175 0.0154 0.0185  0.1501970
 49232581.0000000   -65.1141   -77.3793    53.1877 0.0175 0.0155 0.0185  49232581.3524952   -65.0442   -77.6138    53.1704 0.0175 0.0155 0.0185  0.1524950
 49232591.0000000   -61.8961   -83.2559    53.2509 0.0173 0.0152 0.0182  49232591.3556418   -61.7885   -83.3100    53.4613 0.0172 0.0152 0.0181  0.1556420
 49232601.0000000   -58.1747   -87.8357    53.1097 0.0175 0.0154 0.0184  49232601.3574598   -58.0311   -88.0859    53.0909 0.0175 0.0154 0.0184  0.1574600
 49232611.0000000   -52.7160   -91.9920    53.2672 0.0175 0.0154 0.0185  49232611.3582559   -52.4760   -92.0603    53.3016 0.0175 0.0154 0.0185  0.1582560
 49232621.0000000   -45.7391   -94.9408    53.3741 0.0172 0.0152 0.0181  49232621.3574460   -45.3888   -94.9817    53.1858 0.0172 0.0152 0.0181  0.1574460
 49232631.0000000   -38.3648   -97.3081    53.3809 0.0175 0.0154 0.0184  49232631.3565979   -38.1022   -97.2400    53.4864 0.0175 0.0154 0.0184  0.1565980
 49232642.0000000   -29.7418   -97.3926    53.2383 0.0175 0.0154 0.0184  49232642.3532631   -29.4562   -97.3978    53.2308 0.0175 0.0154 0.0184  0.1532630
 49232651.0000000   -22.7778   -96.5882    53.0819 0.0172 0.0152 0.0181  49232651.3500659   -22.5605   -96.5175    53.1331 0.0172 0.0152 0.0181  0.1500660
 49232661.0000000   -15.6049   -94.7836    53.2450 0.0175 0.0154 0.0184  49232661.3464444   -15.3402   -94.6936    53.2379 0.0175 0.0154 0.0184  0.1464440
 49232671.0000000    -8.2766   -93.0046    53.3340 0.0175 0.0154 0.0185  49232671.3434408    -8.0705   -93.0185    53.2423 0.0175 0.0154 0.0185  0.1434410
 49232681.0000000    -0.9029   -92.8939    53.2586 0.0172 0.0152 0.0181  49232681.3428271    -0.6843   -92.8740    53.2004 0.0172 0.0151 0.0181  0.1428270
 49232691.0000000     6.3176   -92.9713    53.3328 0.0175 0.0154 0.0184  49232691.3432572     6.5954   -92.9739    53.3326 0.0175 0.0154 0.0184  0.1432570
 49232701.0000000    13.7686   -93.2601    53.4552 0.0175 0.0154 0.0185  49232701.3446000    13.9529   -93.2613    53.4839 0.0175 0.0154 0.0184  0.1446000
 49232711.0000000    20.7269   -94.0914    53.1623 0.0172 0.0151 0.0181  49232711.3468578    20.9920   -94.1195    53.1390 0.0172 0.0151 0.0181  0.1468580
 49232721.0000000    27.8164   -93.9176    52.9102 0.0175 0.0154 0.0184  49232721.3486269    28.0674   -93.9668    52.9705 0.0175 0.0154 0.0184  0.1486270
 49232731.0000000    35.2722   -93.1360    53.1556 0.0175 0.0154 0.0184  49232731.3506310    35.5335   -93.0997    53.1648 0.0175 0.0154 0.0184  0.1506310
 49232741.0000000    42.5747   -91.3051    53.0324 0.0172 0.0151 0.0181  49232741.3519640    42.8272   -91.2336    53.1912 0.0172 0.0151 0.0181  0.1519640
 49232752.0000000    49.5972   -87.7198    53.1353 0.0175 0.0154 0.0184  49232752.3519881    49.8750   -87.6236    53.0767 0.0175 0.0154 0.0184  0.1519880
 49232761.0000000    55.3267   -83.9178    53.3299 0.0175 0.0154 0.0184  49232761.3517399    55.5742   -83.6772    53.2020 0.0175 0.0154 0.0184  0.1517400
 49232771.0000000    61.5734   -79.6545    53.2573 0.0172 0.0151 0.0181  49232771.3519609    61.7772   -79.4978    53.3553 0.0171 0.0151 0.0180  0.1519610
 49232781.0000000    67.2129   -74.7598    53.4063 0.0175 0.0154 0.0184  49232781.3518620    67.4593   -74.5444    53.3227 0.0175 0.0154 0.0184  0.1518620
 49232791.0000000    73.0683   -71.2348    53.3438 0.0175 0.0154 0.0184  49232791.3535771    73.2698   -70.9835    53.2588 0.0175 0.0154 0.0184  0.1535770
 49232801.0000000    78.8938   -67.1938    53.2645 0.0171 0.0151 0.0180  49232801.3554151    79.0714   -67.0023    53.1323 0.0172 0.0151 0.0180  0.1554150
 49232811.0000000    83.9964   -62.4199    53.0718 0.0174 0.0153 0.0183  49232811.3565762    84.2055   -62.2467    53.0506 0.0174 0.0153 0.0183  0.1565760
 49232821.0000000    88.5670   -56.9322    53.3536 0.0175 0.0154 0.0184  49232821.3574781    88.6686   -56.7152    53.4289 0.0174 0.0154 0.0184  0.1574780
 49232832.0000000    93.1636   -49.9504    53.2549 0.0171 0.0150 0.0180  49232832.3579252    93.2926   -49.7125    53.2827 0.0171 0.0151 0.0180  0.1579250
 49232842.0000000    96.7091   -43.4385    53.2680 0.0174 0.0153 0.0183  49232842.3582468    96.7788   -43.2363    53.2594 0.0174 0.0153 0.0184  0.1582470
 49232852.0000000    99.5139   -37.0759    53.1439 0.0174 0.0153 0.0183  49232852.3584049    99.5872   -36.8058    53.1381 0.0174 0.0153 0.0183  0.1584050
 49232862.0000000   101.6356   -29.5616    53.2674 0.0171 0.0150 0.0180  49232862.3580239   101.6967   -29.2149    53.1702 0.0171 0.0150 0.0180  0.1580240
 49232872.0000000   102.6388   -21.7630    53.3287 0.0174 0.0153 0.0183  49232872.3570049   102.6930   -21.4781    53.2018 0.0174 0.0153 0.0183  0.1570050
 49232882.0000000   102.3612   -14.2945    53.3506 0.0174 0.0154 0.0184  49232882.3551178   102.3006   -14.0479    53.3197 0.0174 0.0154 0.0184  0.1551180
 49232892.0000000   101.2725    -6.5396    53.3916 0.0171 0.0150 0.0179  49232892.3529229   101.2093    -6.1731    53.3363 0.0171 0.0150 0.0180  0.1529230
 49232902.0000000   100.0887     1.0120    53.3464 0.0174 0.0153 0.0183  49232902.3513169   100.0814     1.3410    53.4061 0.0174 0.0153 0.0183  0.1513170
 49232912.0000000    98.8459     8.2973    53.4273 0.0174 0.0153 0.0183  49232912.3503122    98.7852     8.5601    53.4280 0.0174 0.0153 0.0183  0.1503120
 49232922.0000000    97.1160    16.0669    53.0396 0.0171 0.0150 0.0179  49232922.3491619    97.0682    16.3864    52.9469 0.0171 0.0150 0.0180  0.1491620
 49232932.0000000    95.0334    23.0993    53.2094 0.0174 0.0153 0.0183  49232932.3485789    95.0044    23.3799    53.2170 0.0174 0.0153 0.0183  0.1485790
 49232942.0000000    92.9227    30.4453    53.0105 0.0174 0.0153 0.0183  49232942.3483629    92.7985    30.6772    52.9148 0.0174 0.0153 0.0183  0.1483630
 49232952.0000000    90.1765    37.0238    53.2840 0.0170 0.0150 0.0179  49232952.3481789    90.0853    37.1764    53.2207 0.0171 0.0150 0.0179  0.1481790
 49232962.0000000    86.9263    43.3781    53.4156 0.0174 0.0153 0.0183  49232962.3478699    86.7891    43.6585    53.3059 0.0174 0.0153 0.0183  0.1478700
 49232972.0000000    83.2721    49.5787    53.1068 0.0174 0.0153 0.0183  49232972.3474388    83.1025    49.7697    53.1375 0.0174 0.0153 0.0183  0.1474390
 49232982.0000000    79.5299    55.6715    53.4227 0.0170 0.0150 0.0179  49232982.3478978    79.4336    55.9642    53.5307 0.0171 0.0150 0.0179  0.1478980
 49232992.0000000    76.1922    62.2615    53.4866 0.0174 0.0153 0.0183  49232992.3494999    76.1630    62.5621    53.3963 0.0174 0.0153 0.0183  0.1495000
 49233002.0000000    73.0739    68.7150    53.0477 0.0174 0.0153 0.0183  49233002.3514459    72.9395    68.8964    53.1012 0.0174 0.0153 0.0183  0.1514460
 49233012.0000000    70.1391    75.6385    52.7946 0.0170 0.0150 0.0179  49233012.3546212    69.9837    75.7258    52.8700 0.0170 0.0150 0.0179  0.1546210
 49233022.0000000    67.1433    81.5279    53.1190 0.0169 0.0149 0.0178  49233022.3578560    66.9870    81.7226    53.2610 0.0169 0.0148 0.0177  0.1578560
 49233032.0000000    64.3735    87.9960    53.3950 0.0169 0.0148 0.0177  49233032.3620379    64.3278    88.2010    53.2758 0.0169 0.0148 0.0177  0.1620380
 49233042.0000000    61.1376    94.2451    53.3837 0.0166 0.0146 0.0174  49233042.3660052    61.0133    94.5581    53.3452 0.0166 0.0146 0.0174  0.1660050
 49233052.0000000    58.0061   100.4367    52.9837 0.0169 0.0148 0.0177  49233052.3701391    57.8344   100.5650    53.0124 0.0169 0.0148 0.0177  0.1701390
 49233062.0000000    53.3862   105.9638    53.2103 0.0173 0.0151 0.0182  49233062.3735459    53.2265   106.1468    53.2582 0.0173 0.0151 0.0182  0.1735460
 49233072.0000000    47.5258   109.9126    53.1554 0.0170 0.0148 0.0178  49233072.3748071    47.3189   109.9930    53.1401 0.0170 0.0148 0.0178  0.1748070
 49233082.0000000    40.6863   111.9399    53.1683 0.0173 0.0151 0.0182  49233082.3740332    40.4569   111.9933    53.1053 0.0174 0.0151 0.0182  0.1740330
 49233092.0000000    33.4877   111.8012    52.9465 0.0173 0.0151 0.0182  49233092.3709652    33.2191   111.7166    52.9839 0.0173 0.0151 0.0182  0.1709650
