# time0_transmit N0 E0 U0 sigN0 sigE0 sigU0 time1_receive N1 E1 U1 sigN1 sigE1 sigU1 TWTT(s)
# transmit/receive times in seconds after 2020-1-1 00:00:00 (UTC)
# Topocentric coordinates: Lat0=32.8668445 deg., Lon0=-117.2701205 deg., H0=-88.738 m 
 51911152.0000000    58.4085   -82.0519    53.5673 0.0164 0.0141 0.0167  51911152.3520091    58.6337   -81.6348    53.8300 0.0163 0.0142 0.0167  0.1520090
 51911162.0000000    64.4376   -75.8015    53.7079 0.0163 0.0141 0.0167  51911162.3506558    64.6564   -75.5904    53.6260 0.0163 0.0141 0.0167  0.1506560
 51911172.0000000    68.8721   -70.7535    53.7093 0.0162 0.0140 0.0166  51911172.3497221    69.0220   -70.5162    53.6174 0.0163 0.0140 0.0166  0.1497220
 51911182.0000000    74.2813   -65.4079    53.5783 0.0163 0.0141 0.0167  51911182.3499482    74.3605   -65.2189    53.5131 0.0163 0.0141 0.0167  0.1499480
 51911192.0000000    79.2074   -60.9003    53.3921 0.0163 0.0141 0.0167  51911192.3510318    79.4034   -60.8356    53.3408 0.0163 0.0141 0.0167  0.1510320
 51911202.0000000    84.4415   -56.1369    53.6891 0.0163 0.0140 0.0166  51911202.3528240    84.5705   -55.8282    53.7573 0.0163 0.0140 0.0166  0.1528240
 51911212.0000000    89.7344   -50.8106    53.5304 0.0163 0.0141 0.0167  51911212.3548279    89.9197   -50.6150    53.5641 0.0164 0.0141 0.0167  0.1548280
 51911222.0000000    94.8328   -46.4973    53.5542 0.0164 0.0141 0.0167  51911222.3578160    94.9981   -46.3009    53.6813 0.0163 0.0141 0.0167  0.1578160
 51911232.0000000   100.6921   -41.2923    53.5087 0.0163 0.0140 0.0166  51911232.3615980   100.9110   -41.0227    53.4741 0.0163 0.0140 0.0166  0.1615980
 51911262.0000000   119.6555   -28.1701    53.7868 0.0163 0.0140 0.0166  51911262.3789601   119.8568   -27.9722    53.7292 0.0163 0.0140 0.0167  0.1789600
 51911272.0000000   125.6234   -25.5175    53.4156 0.0164 0.0141 0.0167  51911272.3852050   125.8215   -25.3910    53.4715 0.0164 0.0141 0.0167  0.1852050
 51911282.0000000   131.2449   -21.9045    53.4596 0.0164 0.0141 0.0167  51911282.3913000   131.4081   -21.8337    53.5173 0.0164 0.0141 0.0167  0.1913000
 51911292.0000000   135.5122   -16.5817    53.7596 0.0163 0.0140 0.0167  51911292.3959191   135.6722   -16.2437    53.8220 0.0163 0.0140 0.0166  0.1959190
 51911302.0000000   136.8448    -9.5879    53.7487 0.0164 0.0141 0.0167  51911302.3961971   136.7098    -9.0154    53.7348 0.0164 0.0141 0.0167  0.1961970
 51911312.0000000   131.8548    -3.4620    53.8094 0.0164 0.0141 0.0167  51911312.3895392   131.5300    -3.0422    53.7189 0.0164 0.0141 0.0167  0.1895390
 51911322.0000000   125.0455     1.2719    53.6202 0.0163 0.0141 0.0167  51911322.3810580   124.6991     1.5165    53.5902 0.0163 0.0140 0.0167  0.1810580
 51911332.0000000   118.5866     5.5527    53.7843 0.0164 0.0141 0.0167  51911332.3735349   118.3711     5.8759    53.8280 0.0164 0.0141 0.0167  0.1735350
 51911342.0000000   112.3441    10.2798    53.4630 0.0164 0.0141 0.0167  51911342.3662570   112.1247    10.3645    53.4532 0.0164 0.0141 0.0167  0.1662570
 51911352.0000000   105.9314    15.4645    53.3943 0.0163 0.0141 0.0167  51911352.3592689   105.6525    15.5313    53.3327 0.0163 0.0141 0.0167  0.1592690
 51911362.0000000    99.3891    20.3055    53.6961 0.0178 0.0151 0.0183  51911362.3527789    99.1100    20.5500    53.5427 0.0178 0.0151 0.0183  0.1527790
 51911372.0000000    93.6306    25.3509    53.5499 0.0164 0.0141 0.0168  51911372.3475981    93.4581    25.5641    53.5454 0.0164 0.0141 0.0168  0.1475980
 51911382.0000000    88.3827    30.8437    53.5374 0.0163 0.0141 0.0167  51911382.3436182    88.1468    31.1377    53.4521 0.0163 0.0141 0.0167  0.1436180
 51911392.0000000    83.0699    36.8198    53.6639 0.0164 0.0141 0.0168  51911392.3405991    82.8417    37.1417    53.6494 0.0164 0.0141 0.0168  0.1405990
 51911402.0000000    77.7092    42.8740    53.5826 0.0164 0.0141 0.0168  51911402.3382280    77.6154    43.0953    53.6611 0.0164 0.0141 0.0168  0.1382280
 51911412.0000000    72.5074    49.6932    53.4974 0.0163 0.0141 0.0167  51911412.3371789    72.3760    49.8930    53.4679 0.0164 0.0141 0.0167  0.1371790
 51911422.0000000    67.9890    56.6757    53.4409 0.0164 0.0142 0.0168  51911422.3378320    67.8315    56.8957    53.3432 0.0165 0.0142 0.0168  0.1378320
 51911432.0000000    63.9519    63.7059    53.6255 0.0164 0.0141 0.0168  51911432.3399248    63.6716    64.0361    53.4856 0.0165 0.0142 0.0168  0.1399250
 51911442.0000000    60.0081    71.9848    53.4241 0.0164 0.0141 0.0167  51911442.3437178    59.8671    72.0991    53.5297 0.0164 0.0141 0.0167  0.1437180
 51911452.0000000    54.0218    78.3050    53.4595 0.0169 0.0147 0.0174  51911452.3454282    53.7489    78.4434    53.3927 0.0169 0.0147 0.0174  0.1454280
 51911462.0000000    48.2057    82.2622    53.4890 0.0164 0.0141 0.0168  51911462.3458240    48.0156    82.4831    53.6140 0.0164 0.0141 0.0168  0.1458240
 51911472.0000000    41.6886    87.1744    53.4194 0.0164 0.0141 0.0167  51911472.3471279    41.5333    87.2289    53.4096 0.0164 0.0141 0.0168  0.1471280
 51911482.0000000    35.3423    91.5371    53.5781 0.0164 0.0141 0.0168  51911482.3490219    35.1694    91.6876    53.5214 0.0164 0.0141 0.0168  0.1490220
 51911492.0000000    29.4395    96.0446    53.6528 0.0165 0.0142 0.0168  51911492.3517518    29.1937    96.2126    53.6267 0.0165 0.0142 0.0168  0.1517520
 51911502.0000000    23.7231   100.5853    53.4692 0.0164 0.0141 0.0168  51911502.3551090    23.4299   100.8172    53.4410 0.0164 0.0141 0.0167  0.1551090
 51911522.0000000    10.5786   110.6338    53.5618 0.0165 0.0142 0.0168  51911522.3649402    10.4148   110.7508    53.6656 0.0165 0.0142 0.0168  0.1649400
 51911532.0000000     3.5782   116.5165    53.4631 0.0164 0.0141 0.0168  51911532.3711128     3.3677   116.5264    53.5568 0.0164 0.0141 0.0168  0.1711130
 51911542.0000000    -2.3954   121.3927    53.5847 0.0165 0.0142 0.0168  51911542.3770909    -2.6668   121.6125    53.5375 0.0165 0.0142 0.0169  0.1770910
 51911552.0000000    -8.6937   125.3780    53.5738 0.0165 0.0142 0.0169  51911552.3821139    -9.0149   125.4258    53.5341 0.0165 0.0142 0.0169  0.1821140
 51911562.0000000   -16.6944   123.0267    53.8191 0.0164 0.0141 0.0168  51911562.3803022   -17.0148   122.9709    53.9092 0.0164 0.0141 0.0168  0.1803020
 51911572.0000000   -22.4561   116.9289    53.5028 0.0165 0.0142 0.0169  51911572.3737898   -22.5499   116.6819    53.5624 0.0165 0.0142 0.0169  0.1737900
 51911582.0000000   -26.9546   110.7252    53.4446 0.0165 0.0142 0.0169  51911582.3675220   -27.1065   110.4573    53.2633 0.0165 0.0142 0.0169  0.1675220
 51911592.0000000   -30.8044   105.0832    53.6368 0.0165 0.0141 0.0169  51911592.3625331   -30.9731   105.0246    53.8212 0.0165 0.0141 0.0168  0.1625330
 51911602.0000000   -34.3311    99.4481    53.4207 0.0165 0.0142 0.0169  51911602.3571229   -34.4803    99.1733    53.4928 0.0165 0.0142 0.0169  0.1571230
 51911612.0000000   -38.3157    93.9156    53.4567 0.0165 0.0142 0.0169  51911612.3527458   -38.5551    93.8134    53.4191 0.0165 0.0142 0.0169  0.1527460
 51911622.0000000   -43.9160    89.0925    53.5311 0.0165 0.0141 0.0168  51911622.3502548   -44.1527    88.8596    53.4250 0.0165 0.0141 0.0168  0.1502550
 51911632.0000000   -49.7730    84.5090    53.4709 0.0165 0.0142 0.0169  51911632.3487892   -50.0215    84.2781    53.4561 0.0165 0.0142 0.0169  0.1487890
 51911642.0000000   -55.8499    79.5235    53.5184 0.0165 0.0142 0.0169  51911642.3478148   -56.0680    79.3111    53.7087 0.0166 0.0142 0.0169  0.1478150
 51911652.0000000   -61.8929    74.2722    53.4291 0.0165 0.0142 0.0168  51911652.3472271   -62.1322    74.1344    53.5177 0.0165 0.0142 0.0169  0.1472270
 51911662.0000000   -67.9164    69.5401    53.5697 0.0165 0.0142 0.0169  51911662.3479459   -68.1926    69.4333    53.5908 0.0165 0.0142 0.0169  0.1479460
 51911672.0000000   -73.7397    64.7306    53.5656 0.0166 0.0142 0.0169  51911672.3490169   -73.9883    64.5360    53.6203 0.0166 0.0142 0.0169  0.1490170
 51911682.0000000   -79.5086    60.0833    53.5270 0.0165 0.0142 0.0169  51911682.3506682   -79.6890    59.7747    53.4522 0.0166 0.0142 0.0169  0.1506680
 51911693.0000000   -86.6485    54.2650    53.4574 0.0166 0.0143 0.0170  51911693.3537798   -86.8598    54.0754    53.4927 0.0166 0.0143 0.0170  0.1537800
 51911702.0000000   -91.7931    50.7625    53.4482 0.0166 0.0143 0.0170  51911702.3569548   -91.9581    50.6437    53.5032 0.0166 0.0142 0.0170  0.1569550
 51911712.0000000   -98.1931    45.9052    53.3537 0.0166 0.0143 0.0169  51911712.3611460   -98.4530    45.7710    53.5325 0.0165 0.0142 0.0169  0.1611460
 51911722.0000000  -104.9852    41.3521    53.5711 0.0166 0.0143 0.0170  51911722.3665109  -105.2604    41.1379    53.4423 0.0166 0.0143 0.0170  0.1665110
 51911732.0000000  -111.0971    36.2826    53.6377 0.0166 0.0143 0.0170  51911732.3714149  -111.2807    36.0270    53.4758 0.0166 0.0143 0.0170  0.1714150
 51911742.0000000  -115.5226    29.2285    53.6864 0.0166 0.0143 0.0169  51911742.3742621  -115.7802    28.9903    53.4755 0.0166 0.0142 0.0169  0.1742620
 51911752.0000000  -120.0936    22.8098    53.3495 0.0167 0.0144 0.0171  51911752.3776870  -120.1352    22.3031    53.2096 0.0167 0.0144 0.0171  0.1776870
 51911762.0000000  -124.4457    16.3812    53.4861 0.0166 0.0143 0.0170  51911762.3819218  -124.6259    16.1541    53.4956 0.0166 0.0143 0.0170  0.1819220
 51911772.0000000  -128.6682    10.0821    53.7402 0.0179 0.0151 0.0183  51911772.3863900  -128.8266     9.9243    53.8231 0.0179 0.0151 0.0183  0.1863900
 51911782.0000000  -132.9051     4.0464    53.3295 0.0180 0.0152 0.0184  51911782.3909719  -132.9774     3.7495    53.4390 0.0180 0.0152 0.0184  0.1909720
 51911792.0000000  -135.8286    -3.1480    53.5477 0.0180 0.0152 0.0184  51911792.3946638  -135.9103    -3.3395    53.6949 0.0180 0.0152 0.0184  0.1946640
 51911803.0000000  -134.5157    -9.6779    53.6261 0.0180 0.0151 0.0183  51911803.3931499  -134.3886   -10.0760    53.2030 0.0179 0.0151 0.0183  0.1931500
 51911822.0000000  -126.5474   -18.7087    53.4419 0.0180 0.0152 0.0184  51911822.3846698  -126.4509   -18.8366    53.5403 0.0180 0.0152 0.0184  0.1846700
 51911832.0000000  -121.4671   -22.2165    53.6536 0.0179 0.0151 0.0183  51911832.3791599  -121.1711   -22.2880    53.5089 0.0179 0.0151 0.0183  0.1791600
 51911842.0000000  -117.6588   -26.2911    53.6734 0.0180 0.0152 0.0184  51911842.3757339  -117.5242   -26.3625    53.7243 0.0180 0.0152 0.0184  0.1757340
 51911853.0000000  -113.9164   -32.1119    53.7894 0.0180 0.0152 0.0184  51911853.3730600  -113.7288   -32.2870    53.6339 0.0180 0.0152 0.0184  0.1730600
 51911863.0000000  -110.3774   -38.0927    53.3302 0.0179 0.0151 0.0183  51911863.3709769  -110.1778   -38.2883    53.4422 0.0179 0.0151 0.0183  0.1709770
 51911873.0000000  -107.0900   -43.3696    53.6539 0.0180 0.0152 0.0184  51911873.3697140  -106.9711   -43.5710    53.7160 0.0180 0.0152 0.0184  0.1697140
 51911883.0000000  -103.7850   -48.6077    53.6220 0.0180 0.0152 0.0184  51911883.3685298  -103.6002   -48.8269    53.6287 0.0180 0.0152 0.0184  0.1685300
 51911893.0000000  -100.4763   -53.9158    53.4283 0.0179 0.0151 0.0183  51911893.3677492  -100.3004   -54.1412    53.4884 0.0179 0.0151 0.0183  0.1677490
 51911903.0000000   -97.3095   -58.2519    53.2754 0.0180 0.0152 0.0184  51911903.3669989   -97.2904   -58.3378    53.4546 0.0180 0.0152 0.0184  0.1669990
 51911913.0000000   -93.1730   -62.5172    53.5090 0.0180 0.0152 0.0184  51911913.3655388   -92.9782   -62.6326    53.5474 0.0180 0.0152 0.0184  0.1655390
 51911923.0000000   -88.4571   -67.0520    53.6356 0.0180 0.0152 0.0184  51911923.3640869   -88.1822   -67.2804    53.3394 0.0179 0.0152 0.0184  0.1640870
 51911933.0000000   -83.4488   -70.6550    53.3525 0.0181 0.0153 0.0185  51911933.3621240   -83.2686   -70.9556    53.3500 0.0180 0.0152 0.0184  0.1621240
 51911943.0000000   -77.8670   -74.0345    53.6669 0.0180 0.0152 0.0184  51911943.3598752   -77.6680   -74.1369    53.4213 0.0181 0.0154 0.0186  0.1598750
 51911953.0000000   -72.7474   -77.9227    53.3364 0.0180 0.0152 0.0184  51911953.3587999   -72.4562   -78.0952    53.4228 0.0180 0.0152 0.0184  0.1588000
 51911963.0000000   -67.7561   -81.7347    53.5583 0.0180 0.0152 0.0184  51911963.3583832   -67.4840   -81.9258    53.5355 0.0180 0.0152 0.0184  0.1583830
 51911973.0000000   -61.9030   -85.9504    53.6481 0.0180 0.0152 0.0184  51911973.3581460   -61.6242   -86.0884    53.6331 0.0180 0.0152 0.0184  0.1581460
 51911983.0000000   -56.8758   -89.8342    53.5725 0.0180 0.0152 0.0184  51911983.3586278   -56.6913   -89.9818    53.5066 0.0180 0.0152 0.0184  0.1586280
 51911993.0000000   -53.2361   -93.8794    53.3835 0.0180 0.0152 0.0185  51911993.3604448   -53.1438   -93.8949    53.5357 0.0180 0.0152 0.0184  0.1604450
 51912003.0000000   -49.6897   -98.1168    53.3117 0.0180 0.0152 0.0185  51912003.3629401   -49.5334   -98.3075    53.4560 0.0180 0.0152 0.0185  0.1629400
 51912013.0000000   -45.3043  -102.5255    53.8524 0.0180 0.0152 0.0184  51912013.3655469   -45.0456  -102.5332    53.7045 0.0180 0.0152 0.0184  0.1655470
 51912023.0000000   -40.0384  -107.4425    53.4875 0.0181 0.0152 0.0185  51912023.3686891   -39.8808  -107.6844    53.5785 0.0181 0.0153 0.0185  0.1686890
 51912033.0000000   -35.1829  -111.2377    53.3514 0.0180 0.0152 0.0185  51912033.3710108   -34.9583  -111.4406    53.4168 0.0180 0.0152 0.0185  0.1710110
 51912043.0000000   -30.5418  -114.7178    53.5590 0.0180 0.0152 0.0184  51912043.3734539   -30.2367  -114.7856    53.3853 0.0180 0.0152 0.0184  0.1734540
 51912053.0000000   -24.5785  -118.2900    53.6692 0.0180 0.0153 0.0185  51912053.3762078   -24.3243  -118.4752    53.6707 0.0181 0.0152 0.0185  0.1762080
 51912073.0000000   -19.1951  -128.9116    53.4858 0.0180 0.0152 0.0184  51912073.3882859   -19.0046  -129.1759    53.5135 0.0180 0.0152 0.0184  0.1882860
 51912083.0000000   -16.9554  -134.4503    53.3770 0.0181 0.0153 0.0185  51912083.3945608   -16.9114  -134.5947    53.6477 0.0181 0.0153 0.0185  0.1945610
 51912093.0000000   -15.3341  -139.8844    53.6380 0.0181 0.0153 0.0185  51912093.4009600   -15.2128  -140.1996    53.3122 0.0180 0.0152 0.0185  0.2009600
 51912103.0000000   -11.1820  -144.4859    53.2906 0.0180 0.0152 0.0184  51912103.4057872   -10.9773  -144.6493    53.2642 0.0180 0.0153 0.0185  0.2057870
 51912113.0000000    -4.5838  -142.9153    53.3860 0.0181 0.0153 0.0185  51912113.4033148    -4.3825  -142.8889    53.4940 0.0181 0.0153 0.0185  0.2033150
 51912123.0000000     1.7196  -138.8592    53.5149 0.0181 0.0153 0.0185  51912123.3981450     2.0877  -138.7238    53.4548 0.0181 0.0153 0.0185  0.1981450
 51912133.0000000     8.4732  -134.4907    53.3941 0.0180 0.0152 0.0184  51912133.3930769     8.7176  -134.4471    53.3751 0.0180 0.0152 0.0184  0.1930770
 51912143.0000000    14.5365  -130.9343    53.6542 0.0181 0.0153 0.0185  51912143.3892908    14.8104  -130.6478    53.5791 0.0181 0.0153 0.0186  0.1892910
 51912153.0000000    20.8961  -127.7852    53.4345 0.0181 0.0153 0.0185  51912153.3865929    21.0530  -127.6587    53.5315 0.0181 0.0153 0.0185  0.1865930
 51912163.0000000    27.0886  -124.4750    53.4982 0.0180 0.0152 0.0185  51912163.3839850    27.4420  -124.2918    53.4460 0.0180 0.0152 0.0185  0.1839850
 51912173.0000000    33.3837  -121.0445    53.3968 0.0181 0.0153 0.0185  51912173.3817759    33.5103  -121.0076    53.3762 0.0181 0.0153 0.0185  0.1817760
 51912183.0000000    39.8756  -117.1944    53.4514 0.0181 0.0153 0.0185  51912183.3795631    40.0716  -116.9807    53.4731 0.0181 0.0153 0.0185  0.1795630
 51912193.0000000    42.9498  -110.1541    53.6191 0.0180 0.0153 0.0185  51912193.3727038    43.1164  -109.7804    53.5133 0.0181 0.0152 0.0185  0.1727040
 51912203.0000000    46.3107  -102.9507    53.3965 0.0181 0.0153 0.0185  51912203.3662531    46.3577  -102.7501    53.4053 0.0181 0.0153 0.0185  0.1662530
 51912213.0000000    49.4068   -96.1834    53.5842 0.0181 0.0153 0.0185  51912213.3605821    49.5231   -95.9169    53.4742 0.0182 0.0153 0.0186  0.1605820
 51912223.0000000    52.9505   -89.1494    53.4615 0.0181 0.0152 0.0185  51912223.3553519    53.1262   -89.0376    53.3536 0.0181 0.0152 0.0185  0.1553520
 51912233.0000000    57.5063   -82.0416    53.4623 0.0181 0.0153 0.0186  51912233.3512282    57.6077   -81.8194    53.5275 0.0181 0.0153 0.0186  0.1512280
 51912243.0000000    62.1685   -75.9183    53.4741 0.0181 0.0153 0.0186  51912243.3488288    62.2650   -75.6991    53.4944 0.0181 0.0153 0.0186  0.1488290
 51912253.0000000    67.2669   -70.5777    53.4438 0.0180 0.0152 0.0185  51912253.3481388    67.4003   -70.3983    53.5181 0.0181 0.0152 0.0185  0.1481390
 51912263.0000000    72.4676   -66.0903    53.6375 0.0181 0.0153 0.0186  51912263.3488359    72.6850   -65.7743    53.5605 0.0181 0.0153 0.0186  0.1488360
 51912273.0000000    78.4570   -61.2485    53.1531 0.0181 0.0153 0.0186  51912273.3504291    78.6923   -61.2116    53.2024 0.0181 0.0153 0.0186  0.1504290
 51912283.0000000    84.7826   -56.6988    53.5446 0.0181 0.0153 0.0185  51912283.3534670    85.0836   -56.5800    53.3842 0.0181 0.0153 0.0185  0.1534670
 51912293.0000000    90.9922   -52.9591    53.8008 0.0182 0.0153 0.0186  51912293.3574479    91.2164   -52.7177    53.8643 0.0182 0.0153 0.0186  0.1574480
 51912313.0000000   103.3676   -45.7265    53.3971 0.0181 0.0153 0.0185  51912313.3668599   103.6089   -45.6734    53.4519 0.0181 0.0153 0.0185  0.1668600
 51912323.0000000   109.2823   -42.8946    53.4039 0.0181 0.0153 0.0186  51912323.3720658   109.4295   -42.8411    53.5426 0.0182 0.0153 0.0186  0.1720660
 51912333.0000000   115.9147   -39.1321    53.5629 0.0182 0.0153 0.0186  51912333.3779340   116.1539   -38.8945    53.5779 0.0181 0.0153 0.0186  0.1779340
 51912343.0000000   119.8429   -32.8147    53.8777 0.0181 0.0154 0.0186  51912343.3802488   119.7549   -32.4223    53.9086 0.0181 0.0153 0.0185  0.1802490
 51912353.0000000   122.4757   -24.9107    53.3637 0.0182 0.0153 0.0186  51912353.3810210   122.5706   -24.6209    53.2937 0.0182 0.0153 0.0186  0.1810210
 51912363.0000000   126.3595   -16.8250    53.3897 0.0182 0.0153 0.0186  51912363.3841548   126.5079   -16.5964    53.4225 0.0182 0.0154 0.0186  0.1841550
 51912383.0000000   131.7186    -2.3217    53.5590 0.0182 0.0153 0.0186  51912383.3893111   131.5219    -2.1286    53.4959 0.0182 0.0153 0.0186  0.1893110
 51912393.0000000   127.1635     2.9876    53.4921 0.0182 0.0153 0.0186  51912393.3836198   126.9242     3.1718    53.4923 0.0182 0.0153 0.0186  0.1836200
 51912403.0000000   120.0856     7.5687    53.4876 0.0181 0.0153 0.0186  51912403.3752582   119.8443     7.7423    53.4800 0.0181 0.0153 0.0186  0.1752580
 51912413.0000000   114.9490    13.7893    53.7569 0.0182 0.0154 0.0186  51912413.3697829   114.5609    14.4309    53.6018 0.0182 0.0154 0.0187  0.1697830
 51912423.0000000   108.9552    21.4468    53.5264 0.0182 0.0153 0.0186  51912423.3641210   108.7403    21.6996    53.4317 0.0182 0.0154 0.0186  0.1641210
 51912433.0000000   104.9191    27.8438    53.3255 0.0182 0.0153 0.0186  51912433.3611140   104.7687    28.0157    53.3505 0.0181 0.0153 0.0186  0.1611140
 51912443.0000000   101.5455    34.2521    53.3505 0.0182 0.0154 0.0187  51912443.3594472   101.4064    34.3332    53.4176 0.0182 0.0154 0.0187  0.1594470
 51912453.0000000    97.6642    41.3986    53.4802 0.0182 0.0154 0.0187  51912453.3582199    97.5608    41.6241    53.3699 0.0182 0.0154 0.0187  0.1582200
 51912463.0000000    90.9888    46.4001    53.6079 0.0181 0.0153 0.0186  51912463.3534932    90.6566    46.5406    53.6109 0.0181 0.0153 0.0186  0.1534930
 51912473.0000000    83.4524    50.3040    53.3646 0.0182 0.0154 0.0187  51912473.3478858    83.1715    50.3625    53.4241 0.0182 0.0154 0.0187  0.1478860
 51912483.0000000    75.8059    54.8610    53.4187 0.0182 0.0154 0.0187  51912483.3433938    75.4437    55.0344    53.2978 0.0182 0.0154 0.0187  0.1433940
