# time0_transmit N0 E0 U0 sigN0 sigE0 sigU0 time1_receive N1 E1 U1 sigN1 sigE1 sigU1 TWTT(s)
# transmit/receive times in seconds after 2020-1-1 00:00:00 (UTC)
# Topocentric coordinates: Lat0=32.8668445 deg., Lon0=-117.2701205 deg., H0=-88.738 m 
 70047644.0000000  -102.8785   -67.8381    53.2938 0.0147 0.0132 0.0156  70047644.2596788  -102.7677   -67.6375    53.3023 0.0147 0.0132 0.0156  0.1796790
 70047674.0000000   -86.8863   -50.5408    53.6036 0.0147 0.0133 0.0156  70047674.2323689   -86.7367   -50.2869    53.4799 0.0147 0.0133 0.0156  0.1523690
 70047689.0000000   -80.0537   -44.0085    53.1229 0.0148 0.0133 0.0157  70047689.2214830   -79.9205   -43.9392    53.1530 0.0148 0.0133 0.0157  0.1414830
 70047704.0000000   -73.0371   -34.7947    53.4740 0.0147 0.0132 0.0155  70047704.2097998   -72.9840   -34.5986    53.4427 0.0147 0.0132 0.0155  0.1298000
 70047719.0000000   -65.0504   -28.3673    52.9236 0.0148 0.0133 0.0157  70047719.1985731   -64.9708   -28.4115    52.8934 0.0148 0.0133 0.0157  0.1185730
 70047734.0000000   -53.8014   -23.0545    53.2735 0.0146 0.0132 0.0155  70047734.1859238   -53.6840   -23.0288    53.2322 0.0147 0.0132 0.0155  0.1059240
 70047749.0000000   -42.3964   -17.5613    53.4212 0.0148 0.0133 0.0156  70047749.1743302   -42.2997   -17.4658    53.4233 0.0148 0.0133 0.0156  0.0943300
 70047764.0000000   -33.5457   -11.8190    52.8763 0.0146 0.0131 0.0155  70047764.1653128   -33.4087   -11.8119    52.8345 0.0146 0.0132 0.0155  0.0853130
 70047779.0000000   -22.8118    -5.8684    53.7947 0.0148 0.0133 0.0156  70047779.1586652   -22.7043    -5.7316    53.8308 0.0148 0.0133 0.0156  0.0786650
 70047794.0000000   -11.5073     0.4981    53.8447 0.0146 0.0131 0.0155  70047794.1537230   -11.3919     0.5977    53.8939 0.0146 0.0131 0.0155  0.0737230
 70047809.0000000     1.1710    -1.1778    53.3644 0.0147 0.0133 0.0156  70047809.1514628     1.1928    -1.2827    53.3496 0.0147 0.0133 0.0156  0.0714630
 70047824.0000000    11.8826    -9.0765    53.7423 0.0146 0.0131 0.0154  70047824.1546612    12.0222    -9.1213    53.7077 0.0146 0.0131 0.0154  0.0746610
 70047839.0000000    21.2751   -17.5564    53.3422 0.0147 0.0133 0.0156  70047839.1603880    21.3528   -17.6624    53.3373 0.0147 0.0133 0.0156  0.0803880
 70047854.0000000    29.2704   -27.0634    52.8490 0.0146 0.0131 0.0154  70047854.1686969    29.3279   -27.2287    52.9452 0.0146 0.0131 0.0154  0.0886970
 70047869.0000000    36.0512   -37.3471    53.8045 0.0147 0.0132 0.0156  70047869.1800642    36.0987   -37.4062    53.7963 0.0147 0.0132 0.0156  0.1000640
 70047884.0000000    41.6190   -48.1159    53.3955 0.0145 0.0131 0.0154  70047884.1912138    41.6754   -48.2943    53.3189 0.0145 0.0131 0.0154  0.1112140
 70047899.0000000    50.0227   -59.6929    54.0797 0.0147 0.0132 0.0155  70047899.2069278    50.1898   -59.7590    53.9923 0.0147 0.0132 0.0155  0.1269280
 70048064.0000000   147.4683  -152.0926    53.3195 0.0139 0.0126 0.0146  70048064.3728518   147.8968  -152.1121    53.1330 0.0139 0.0126 0.0147  0.2928520
 70048079.0000000   154.8777  -148.7088    53.1876 0.0141 0.0127 0.0148  70048079.3759899   154.9447  -148.5408    53.3367 0.0141 0.0127 0.0148  0.2959900
 70048094.0000000   159.5337  -138.2775    53.6845 0.0139 0.0126 0.0146  70048094.3713942   159.7013  -137.9772    53.6903 0.0139 0.0126 0.0146  0.2913940
 70048124.0000000   167.8555  -117.9370    52.8328 0.0139 0.0125 0.0146  70048124.3637478   168.0358  -117.8347    52.8566 0.0139 0.0125 0.0146  0.2837480
 70048139.0000000   173.2370  -107.5423    53.0445 0.0140 0.0126 0.0147  70048139.3619871   173.4651  -107.3389    53.1393 0.0140 0.0126 0.0147  0.2819870
 70048154.0000000   179.9348   -98.0939    53.2239 0.0139 0.0125 0.0146  70048154.3634593   180.0447   -98.0068    53.3454 0.0139 0.0125 0.0146  0.2834590
 70048169.0000000   185.7624   -89.2972    53.4009 0.0140 0.0126 0.0147  70048169.3649979   185.9454   -89.1029    53.1815 0.0140 0.0126 0.0147  0.2849980
 70048184.0000000   192.6540   -80.8742    53.5747 0.0139 0.0125 0.0146  70048184.3686349   192.9294   -80.4935    53.5641 0.0139 0.0125 0.0146  0.2886350
 70048214.0000000   204.0479   -62.6426    53.0387 0.0138 0.0125 0.0146  70048214.3742149   204.1892   -62.5992    52.9020 0.0138 0.0125 0.0146  0.2942150
 70048229.0000000   210.8059   -53.2980    53.9669 0.0140 0.0126 0.0147  70048229.3797338   211.0445   -52.8927    53.7756 0.0140 0.0126 0.0147  0.2997340
 70048244.0000000   217.3509   -43.6851    53.9667 0.0138 0.0125 0.0145  70048244.3851998   217.4678   -43.2917    53.9226 0.0138 0.0125 0.0146  0.3052000
 70048274.0000000   234.1296   -26.1414    53.3605 0.0138 0.0125 0.0145  70048274.4035349   234.5598   -25.7378    53.4263 0.0138 0.0125 0.0145  0.3235350
 70048289.0000000   240.3920   -17.6910    53.5311 0.0139 0.0126 0.0147  70048289.4105978   240.5927   -17.4467    53.5455 0.0139 0.0126 0.0147  0.3305980
 70048454.0000000   251.7837    38.6910    53.8574 0.0138 0.0124 0.0145  70048454.4283931   251.5496    39.0727    53.8091 0.0138 0.0125 0.0145  0.3483930
 70048499.0000000   225.5742    58.4671    53.7029 0.0142 0.0129 0.0150  70048499.3998828   225.3473    58.7579    53.7206 0.0142 0.0128 0.0149  0.3198830
 70048529.0000000   208.6792    74.7844    53.6934 0.0139 0.0125 0.0145  70048529.3851550   208.3815    75.0013    53.6065 0.0138 0.0125 0.0145  0.3051550
 70048544.0000000   202.8413    82.4627    53.1908 0.0141 0.0127 0.0148  70048544.3816829   202.7473    82.5433    53.2252 0.0141 0.0127 0.0148  0.3016830
 70048559.0000000   196.2715    89.7202    53.3012 0.0142 0.0128 0.0149  70048559.3774250   196.0656    89.9772    53.4104 0.0142 0.0128 0.0149  0.2974250
 70048574.0000000   188.9033    97.7559    53.6937 0.0138 0.0125 0.0145  70048574.3734829   188.4536    98.2694    53.9273 0.0137 0.0124 0.0144  0.2934830
 70048589.0000000   178.0570   106.6387    53.8406 0.0138 0.0125 0.0145  70048589.3668499   177.7046   107.0348    53.8212 0.0138 0.0125 0.0145  0.2868500
 70048604.0000000   168.7413   112.6307    54.1963 0.0137 0.0124 0.0144  70048604.3611262   168.6191   113.0809    54.2618 0.0137 0.0124 0.0144  0.2811260
 70048619.0000000   159.8723   118.6049    53.9139 0.0138 0.0125 0.0145  70048619.3560469   159.6284   119.0875    53.9773 0.0138 0.0125 0.0145  0.2760470
 70048649.0000000   144.5129   134.6958    53.5560 0.0138 0.0125 0.0145  70048649.3539982   144.2954   134.9838    53.6559 0.0138 0.0125 0.0145  0.2739980
 70048664.0000000   135.3729   139.0978    53.9397 0.0137 0.0123 0.0144  70048664.3497038   135.1535   139.2363    53.9299 0.0137 0.0125 0.0144  0.2697040
 70048709.0000000   106.5424   119.4480    52.5897 0.0138 0.0125 0.0145  70048709.3053052   106.3639   119.1123    52.6960 0.0138 0.0124 0.0145  0.2253050
 70048739.0000000    88.8470   104.5878    53.7432 0.0138 0.0124 0.0145  70048739.2772539    88.7285   104.6054    53.8779 0.0138 0.0124 0.0145  0.1972540
 70048754.0000000    80.6438    98.0750    53.4343 0.0137 0.0123 0.0143  70048754.2643309    80.4865    97.9825    53.5152 0.0137 0.0123 0.0143  0.1843310
 70048784.0000000    66.1445    83.0883    52.7570 0.0144 0.0130 0.0151  70048784.2385700    66.0172    82.8174    52.7655 0.0143 0.0130 0.0151  0.1585700
 70048799.0000000    59.1551    73.5382    52.8080 0.0145 0.0132 0.0153  70048799.2247288    59.0880    73.3476    53.0021 0.0145 0.0132 0.0153  0.1447290
 70048814.0000000    50.7098    67.5955    53.6958 0.0143 0.0130 0.0151  70048814.2138379    50.5097    67.5268    53.5554 0.0144 0.0131 0.0152  0.1338380
 70048829.0000000    44.8712    59.6021    53.2981 0.0145 0.0131 0.0153  70048829.2026508    44.7726    59.5043    53.3346 0.0145 0.0132 0.0153  0.1226510
 70048844.0000000    38.8092    51.8305    53.0936 0.0143 0.0130 0.0151  70048844.1919458    38.6783    51.6431    53.1387 0.0143 0.0130 0.0151  0.1119460
 70048859.0000000    33.3029    43.6802    53.2627 0.0145 0.0131 0.0152  70048859.1823280    33.2324    43.5846    53.3044 0.0145 0.0131 0.0152  0.1023280
 70048874.0000000    24.8352    34.3975    53.1549 0.0144 0.0130 0.0151  70048874.1710279    24.7362    34.2551    53.3183 0.0143 0.0130 0.0151  0.0910280
 70048889.0000000    16.6479    27.0302    54.1148 0.0144 0.0131 0.0152  70048889.1639230    16.5402    27.0394    54.1157 0.0144 0.0131 0.0152  0.0839230
 70048904.0000000    10.0767    17.2785    53.0847 0.0143 0.0130 0.0151  70048904.1558919    10.0250    17.1136    53.1022 0.0143 0.0130 0.0151  0.0758920
 70048919.0000000     4.4213     7.7764    53.2620 0.0144 0.0131 0.0152  70048919.1523092     4.3324     7.6606    53.3071 0.0144 0.0131 0.0152  0.0723090
 70048934.0000000    -1.5972    -1.6606    53.5591 0.0143 0.0130 0.0151  70048934.1517029    -1.6661    -1.7749    53.4848 0.0143 0.0130 0.0151  0.0717030
 70048949.0000000    -6.1370   -11.0296    54.0652 0.0144 0.0131 0.0152  70048949.1542792    -6.2537   -11.0805    53.9724 0.0144 0.0131 0.0152  0.0742790
 70048964.0000000   -11.1478   -20.9259    53.2881 0.0143 0.0130 0.0151  70048964.1581450   -11.1707   -21.0108    53.3688 0.0143 0.0129 0.0151  0.0781450
 70048979.0000000   -19.3027   -28.1656    52.6718 0.0144 0.0131 0.0152  70048979.1641650   -19.4312   -28.3735    52.7168 0.0144 0.0131 0.0152  0.0841650
 70048994.0000000   -26.9461   -35.6712    53.8425 0.0143 0.0129 0.0150  70048994.1737149   -27.0682   -35.7048    53.7762 0.0143 0.0129 0.0150  0.0937150
 70049009.0000000   -35.4451   -42.4441    53.2923 0.0144 0.0131 0.0152  70049009.1829212   -35.5091   -42.4842    53.4149 0.0144 0.0131 0.0152  0.1029210
 70049024.0000000   -44.2841   -47.8368    53.1608 0.0143 0.0129 0.0150  70049024.1926899   -44.3596   -47.9003    53.1614 0.0143 0.0129 0.0151  0.1126900
 70049039.0000000   -52.5858   -54.3325    54.0984 0.0144 0.0131 0.0152  70049039.2045889   -52.6798   -54.2733    54.1307 0.0144 0.0131 0.0152  0.1245890
 70049054.0000000   -61.0837   -62.8367    53.0319 0.0143 0.0129 0.0150  70049054.2173510   -61.1106   -63.1163    53.0010 0.0142 0.0129 0.0150  0.1373510
 70049354.0000000   -84.8259   -86.8773    53.3922 0.0142 0.0130 0.0151  70049354.2576430   -84.6401   -86.7983    53.5179 0.0142 0.0130 0.0151  0.1776430
 70049369.0000000   -75.4284   -77.6621    53.1991 0.0144 0.0131 0.0152  70049369.2414539   -75.3087   -77.6076    53.0727 0.0144 0.0131 0.0152  0.1614540
 70049384.0000000   -69.9826   -65.5881    53.1015 0.0142 0.0129 0.0151  70049384.2267342   -69.9407   -65.3983    53.1156 0.0142 0.0129 0.0151  0.1467340
 70049399.0000000   -65.3730   -55.4153    53.4200 0.0144 0.0131 0.0152  70049399.2151818   -65.2160   -55.3008    53.4570 0.0143 0.0131 0.0152  0.1351820
 70049414.0000000   -55.7728   -47.8446    53.2221 0.0142 0.0130 0.0151  70049414.2015200   -55.6596   -47.7807    53.3398 0.0142 0.0130 0.0151  0.1215200
 70049429.0000000   -45.5137   -37.0870    53.5348 0.0146 0.0132 0.0154  70049429.1862650   -45.3709   -37.0103    53.3946 0.0146 0.0132 0.0154  0.1062650
 70049444.0000000   -36.9724   -29.5861    53.5287 0.0142 0.0129 0.0150  70049444.1757050   -36.9164   -29.5353    53.5725 0.0142 0.0130 0.0150  0.0957050
 70049459.0000000   -29.4687   -20.6991    53.9067 0.0143 0.0131 0.0152  70049459.1667888   -29.4035   -20.6002    53.8698 0.0143 0.0131 0.0151  0.0867890
 70049474.0000000   -20.1669   -10.4016    53.0624 0.0142 0.0130 0.0150  70049474.1572452   -20.0945   -10.4267    52.9913 0.0142 0.0130 0.0151  0.0772450
 70049489.0000000   -12.9675    -2.1542    52.1905 0.0143 0.0131 0.0152  70049489.1520221   -12.9034    -2.2342    52.1501 0.0143 0.0131 0.0151  0.0720220
 70049504.0000000    -1.5037     0.5525    53.2392 0.0142 0.0129 0.0150  70049504.1513438    -1.3902     0.4708    53.2954 0.0142 0.0129 0.0150  0.0713440
 70049519.0000000     9.0266    -6.4347    53.4925 0.0143 0.0130 0.0151  70049519.1530828     9.1257    -6.5227    53.4867 0.0143 0.0130 0.0151  0.0730830
 70049534.0000000    18.8892   -16.6565    53.5154 0.0144 0.0130 0.0152  70049534.1591160    19.0024   -16.7909    53.4446 0.0144 0.0130 0.0152  0.0791160
 70049549.0000000    29.1138   -26.2146    53.0517 0.0143 0.0131 0.0152  70049549.1682498    29.2550   -26.4164    52.9373 0.0143 0.0131 0.0152  0.0882500
 70049564.0000000    35.6956   -37.4160    53.7490 0.0142 0.0129 0.0150  70049564.1798420    35.8038   -37.4559    53.8260 0.0142 0.0129 0.0150  0.0998420
 70049579.0000000    41.0785   -48.4761    54.0058 0.0143 0.0131 0.0151  70049579.1916420    41.0991   -48.4601    54.0797 0.0143 0.0131 0.0151  0.1116420
 70049609.0000000    57.7289   -69.3602    53.6072 0.0143 0.0131 0.0151  70049609.2205930    57.8378   -69.4264    53.5806 0.0143 0.0130 0.0151  0.1405930
 70049759.0000000   155.0877  -156.3571    53.1750 0.0146 0.0132 0.0153  70049759.3833430   155.3453  -156.3752    53.2362 0.0146 0.0132 0.0153  0.3033430
 70049774.0000000   162.4443  -147.7299    52.9964 0.0144 0.0131 0.0152  70049774.3822389   162.3374  -147.7548    52.9553 0.0144 0.0130 0.0152  0.3022390
 70049789.0000000   164.5293  -137.0004    53.2508 0.0146 0.0132 0.0153  70049789.3752940   164.6056  -136.9145    53.1529 0.0146 0.0131 0.0153  0.2952940
 70049804.0000000   168.5544  -127.5498    53.3312 0.0144 0.0130 0.0152  70049804.3718808   168.9014  -127.4847    53.1561 0.0144 0.0131 0.0152  0.2918810
 70049819.0000000   175.7665  -117.0424    53.3516 0.0146 0.0132 0.0153  70049819.3715279   175.8124  -116.9109    53.4083 0.0146 0.0131 0.0153  0.2915280
 70049834.0000000   181.8365  -107.1658    53.6534 0.0144 0.0130 0.0152  70049834.3716590   182.0335  -106.8472    53.6754 0.0142 0.0130 0.0150  0.2916590
 70049849.0000000   188.2776   -98.3773    53.5907 0.0146 0.0131 0.0153  70049849.3732731   188.4571   -98.2275    53.6542 0.0146 0.0131 0.0153  0.2932730
 70049864.0000000   194.6433   -89.5549    53.3707 0.0145 0.0130 0.0152  70049864.3756850   194.9337   -89.1957    53.4948 0.0145 0.0131 0.0152  0.2956850
 70049879.0000000   202.9099   -81.3994    53.7451 0.0146 0.0132 0.0153  70049879.3814230   203.2060   -81.2032    53.7931 0.0146 0.0132 0.0153  0.3014230
 70049939.0000000   244.9323   -54.0422    54.0138 0.0146 0.0131 0.0153  70049939.4234459   245.1091   -53.5417    54.1529 0.0146 0.0131 0.0153  0.3434460
 70049954.0000000   249.9978   -43.3537    53.8917 0.0142 0.0130 0.0151  70049954.4271221   250.0960   -42.9606    53.9118 0.0142 0.0130 0.0151  0.3471220
 70049969.0000000   254.5762   -33.8682    53.5818 0.0143 0.0131 0.0152  70049969.4311948   254.8750   -33.5801    53.4222 0.0143 0.0131 0.0152  0.3511950
 70049984.0000000   260.1905   -25.1491    53.6814 0.0142 0.0130 0.0151  70049984.4373348   260.5555   -24.6391    53.4608 0.0144 0.0130 0.0152  0.3573350
 70050044.0000000   291.8892     1.8166    53.2432 0.0142 0.0130 0.0151  70050044.4771018   291.9879     1.9830    53.1420 0.0143 0.0130 0.0151  0.3971020
 70050194.0000000   223.8627    59.5082    53.2752 0.0135 0.0124 0.0143  70050194.3979709   223.5600    59.9205    53.3574 0.0135 0.0124 0.0143  0.3179710
 70050209.0000000   217.4784    67.6928    53.3357 0.0136 0.0125 0.0144  70050209.3930032   217.2364    67.8608    53.4242 0.0136 0.0125 0.0144  0.3130030
 70050224.0000000   209.6692    76.2402    53.7856 0.0135 0.0124 0.0143  70050224.3869579   209.2208    76.6780    53.8840 0.0135 0.0125 0.0143  0.3069580
 70050254.0000000   193.4374    88.5904    53.7609 0.0135 0.0125 0.0143  70050254.3737721   193.3803    88.7735    53.7283 0.0135 0.0124 0.0143  0.2937720
 70050269.0000000   184.5340    94.9041    53.6058 0.0136 0.0125 0.0144  70050269.3667459   184.2774    95.0178    53.4697 0.0136 0.0125 0.0144  0.2867460
 70050284.0000000   177.4812   103.0112    53.5824 0.0140 0.0130 0.0150  70050284.3640122   177.3019   103.3093    53.3809 0.0141 0.0130 0.0150  0.2840120
 70050299.0000000   170.4706   110.8294    53.3909 0.0136 0.0125 0.0144  70050299.3613489   170.2706   110.8221    53.0821 0.0136 0.0126 0.0144  0.2813490
 70050329.0000000   155.2195   123.3206    52.9474 0.0136 0.0127 0.0145  70050329.3549130   155.4153   123.3349    52.7398 0.0136 0.0126 0.0144  0.2749130
 70050344.0000000   148.1542   130.6614    53.5883 0.0136 0.0124 0.0144  70050344.3540130   147.9439   130.8879    53.6933 0.0135 0.0124 0.0143  0.2740130
 70050359.0000000   139.0775   133.8623    53.7766 0.0136 0.0126 0.0144  70050359.3482368   138.9651   133.9285    53.8099 0.0136 0.0126 0.0144  0.2682370
 70050464.0000000    92.5734    95.9449    53.5610 0.0136 0.0125 0.0144  70050464.2723799    92.4721    95.8996    53.6211 0.0136 0.0125 0.0144  0.1923800
 70050479.0000000    86.6566    88.2469    53.1094 0.0137 0.0126 0.0145  70050479.2599552    86.5134    87.8920    52.9456 0.0137 0.0126 0.0145  0.1799550
 70050494.0000000    79.0022    78.6981    53.7933 0.0136 0.0125 0.0144  70050494.2457528    78.8950    78.6569    53.8806 0.0136 0.0125 0.0144  0.1657530
 70050524.0000000    68.5576    66.7846    53.6322 0.0136 0.0125 0.0144  70050524.2269080    68.5147    66.7684    53.6738 0.0136 0.0125 0.0144  0.1469080
 70050539.0000000    62.6621    61.8049    53.5710 0.0137 0.0126 0.0145  70050539.2180471    62.6271    61.8443    53.7195 0.0137 0.0126 0.0145  0.1380470
 70050554.0000000    56.9712    56.2194    53.2041 0.0136 0.0125 0.0144  70050554.2086968    56.9692    56.1352    53.2830 0.0136 0.0125 0.0144  0.1286970
 70050569.0000000    50.1336    51.6052    53.3800 0.0137 0.0126 0.0145  70050569.1998668    50.0082    51.4532    53.4122 0.0137 0.0126 0.0145  0.1198670
 70050584.0000000    42.9011    43.6578    53.5014 0.0136 0.0125 0.0144  70050584.1888342    42.8479    43.5832    53.5852 0.0136 0.0125 0.0144  0.1088340
 70050599.0000000    37.1024    37.2865    53.6429 0.0137 0.0126 0.0145  70050599.1806159    37.0982    37.2414    53.7342 0.0137 0.0126 0.0145  0.1006160
 70050614.0000000    29.0402    29.6984    53.1755 0.0136 0.0125 0.0144  70050614.1703038    28.9724    29.5692    53.2033 0.0136 0.0125 0.0144  0.0903040
 70050629.0000000    21.8945    21.9610    53.5754 0.0137 0.0126 0.0145  70050629.1628540    21.8389    21.9233    53.5475 0.0137 0.0126 0.0145  0.0828540
 70050644.0000000    15.6562    13.3332    53.1032 0.0136 0.0125 0.0145  70050644.1562941    15.6177    13.2151    53.1974 0.0136 0.0125 0.0144  0.0762940
 70050659.0000000    10.9884     4.9198    53.6105 0.0137 0.0126 0.0146  70050659.1535792    10.9142     4.8683    53.6404 0.0137 0.0126 0.0146  0.0735790
 70050674.0000000     7.5742    -2.7941    53.2943 0.0137 0.0126 0.0145  70050674.1521358     7.4904    -2.9548    53.2140 0.0137 0.0126 0.0145  0.0721360
 70050689.0000000     3.1109   -11.6713    53.1401 0.0138 0.0127 0.0146  70050689.1530569     3.0366   -11.7111    53.2131 0.0137 0.0127 0.0146  0.0730570
 70050704.0000000    -2.3362   -18.4757    53.1549 0.0141 0.0128 0.0149  70050704.1555350    -2.4466   -18.6003    53.2467 0.0141 0.0129 0.0149  0.0755350
 70050719.0000000    -8.1276   -24.7725    54.2847 0.0142 0.0129 0.0150  70050719.1606328    -8.1636   -24.6880    54.2690 0.0142 0.0129 0.0150  0.0806330
 70050734.0000000   -16.0607   -31.2679    52.7313 0.0141 0.0129 0.0149  70050734.1650002   -16.1568   -31.4898    52.7311 0.0141 0.0129 0.0149  0.0850000
 70050749.0000000   -22.7110   -38.8387    53.5667 0.0142 0.0130 0.0150  70050749.1737640   -22.7955   -38.9015    53.5569 0.0142 0.0129 0.0150  0.0937640
 70050764.0000000   -30.1293   -43.3142    53.7528 0.0141 0.0129 0.0149  70050764.1808970   -30.1705   -43.3433    53.7456 0.0141 0.0129 0.0149  0.1008970
 70050779.0000000   -37.3146   -49.9782    53.2241 0.0142 0.0130 0.0150  70050779.1899328   -37.4020   -50.1006    53.2387 0.0142 0.0130 0.0150  0.1099330
 70050794.0000000   -44.2794   -55.4701    53.8409 0.0141 0.0129 0.0150  70050794.1993861   -44.3591   -55.4659    53.9399 0.0141 0.0129 0.0150  0.1193860
 70050809.0000000   -50.6804   -60.4955    53.2189 0.0142 0.0130 0.0151  70050809.2076118   -50.7423   -60.5420    53.1994 0.0142 0.0130 0.0151  0.1276120
